# FREQS (CM^-1)
36.9767
36.9767
38.9756
49.7142
49.7142
66.1022
66.1022
66.7207
66.7207
66.8318
66.8318
68.2951
68.2951
69.1077
69.1077
72.5210
72.5210
73.9029
73.9029
73.9029
73.9029
76.5855
76.5855
85.7803
85.9497
85.9497
92.0004
93.7832
93.7832
94.4692
94.4692
94.6965
94.6965
96.2823
96.2823
97.1339
97.1339
97.5451
100.5764
100.5764
101.4119
101.4119
104.3775
104.3775
109.0891
109.0891
114.8632
114.8632
116.8694
117.3977
117.3977
117.4793
117.4793
117.5643
117.5643
121.7133
121.7133
121.7133
121.7133
122.6655
122.6655
123.0563
123.0563
125.1983
125.1983
127.2279
130.8425
130.8425
131.3615
131.3615
132.7487
132.7487
137.9847
137.9847
141.3437
141.3437
141.3437
141.3437
144.1329
144.1329
144.1954
144.1954
148.0484
148.0484
149.2255
149.2255
149.9098
152.0124
152.0124
152.0952
152.0952
152.1726
152.1726
152.2251
153.3334
153.3334
154.1965
154.1965
154.7780
154.7780
161.6865
161.6865
161.6865
161.6865
164.8822
164.8822
168.1571
168.1571
170.6230
170.6230
175.7227
177.4285
178.4136
178.4136
179.3789
179.3789
180.7108
180.7108
181.3992
181.3992
182.5182
182.5182
182.7256
182.7256
183.2878
183.2878
183.5211
183.5211
185.0856
185.0856
186.4981
186.4981
186.8501
186.8501
187.1443
187.1443
190.3360
190.3360
190.4947
190.4947
193.2150
194.3055
194.3055
196.5392
196.5392
197.7681
197.7681
197.7681
197.7681
199.4707
199.4707
206.4930
206.4930
206.5175
206.5175
214.9562
214.9562
219.0594
219.0594
219.3257
219.3257
219.7406
219.7406
219.8135
219.8135
225.8499
225.8499
227.7116
230.8002
230.8002
232.2138
232.2138
236.7224
238.1782
238.1782
250.5771
250.5771
251.3667
251.3667
251.3667
251.3667
256.0855
256.0855
265.5674
265.5674
267.6695
268.3433
268.3433
275.8908
275.8908
285.1093
285.1093
286.5888
286.5888
288.3025
290.5134
290.5134
291.1731
291.1731
291.1839
291.1839
292.5010
293.1472
293.1472
293.1472
293.1472
293.2530
293.2530
294.7284
295.6074
295.6074
296.2183
296.2183
296.2527
299.5531
299.5531
300.5855
300.5855
301.7449
301.7449
302.5933
302.5933
302.8750
302.8750
303.3375
303.3375
303.9914
303.9914
307.9096
307.9096
308.2207
308.2207
308.6783
308.6783
309.1671
309.1671
313.7461
313.7461
313.7461
313.7461
314.5021
314.5021
314.5915
315.4924
315.4924
315.9435
315.9435
317.1478
317.1478
317.4019
317.4019
320.7035
320.8740
321.5844
321.5844
322.5082
322.5082
322.5320
322.5320
322.7225
322.7225
323.1427
323.1427
323.5120
323.8530
323.8530
323.9131
323.9131
323.9131
323.9131
327.0460
327.0460
327.7066
327.7066
333.3488
333.5826
333.5826
336.1786
336.1786
341.2954
341.2954
371.2525
371.2525
377.9280
377.9280
676.0710
676.0710
676.0769
676.0769
676.2705
676.2705
676.3901
676.3901
676.9973
677.1061
677.1061
677.1108
677.1108
677.2625
677.9460
677.9460
677.9460
677.9460
680.9454
680.9454
680.9842
680.9842
681.0117
681.0117
681.7706
681.7706
681.8656
681.8656
682.5562
682.5562
683.8512
683.8512
684.0280
684.4296
684.4296
684.4296
684.4296
684.5612
684.5612
684.6535
684.6535
684.9644
684.9644
684.9947
684.9947
685.7175
685.7175
685.8834
685.8834
686.0113
686.0113
686.1523
686.1523
686.3839
686.3839
686.3842
686.3842
686.6724
686.6724
687.1324
687.1324
687.7058
688.4508
688.4508
819.4525
821.2341
821.2341
821.2962
821.3917
821.3917
821.4761
821.4761
821.8754
821.8754
821.9027
821.9343
821.9343
821.9486
821.9486
821.9502
821.9502
822.0150
822.0150
822.0150
822.0150
822.0458
822.0458
822.9123
822.9123
823.0086
823.6654
823.6654
823.8572
823.8572
828.9797
828.9797
1051.9541
1052.1230
1052.1230
1052.1766
1052.1766
1052.1850
1052.2027
1052.2027
1052.2438
1052.2438
1052.2544
1052.2544
1052.2547
1052.2547
1052.3000
1052.3000
1052.3349
1052.3349
1052.3461
1052.3461
1052.3461
1052.3461
1052.4715
1052.4715
1052.5279
1052.5279
1052.5549
1052.5549
1052.7137
1052.7137
1052.7752
1052.8762
1375.5345
1375.5345
1384.6265
1384.6265
1390.7417
1390.7417
1390.9368
1390.9368
1392.8780
1392.9296
1392.9296
1397.1394
1397.1394
1401.2044
1401.2044
1405.1408
1405.1408
1405.1408
1405.1408
1406.1048
1406.1048
1407.2241
1407.2241
1408.5320
1408.5320
1409.2529
1409.2529
1409.5578
1409.5578
1410.5014
1410.5014
1411.3620
1413.0825
1413.0825
1421.1029
1421.1029
1422.5787
1422.5787
1432.3612
1432.3612
1434.0484
1434.8487
1434.8487
1435.4571
1435.4571
1436.2634
1436.2634
1457.7437
1457.7437
1457.7437
1457.7437
1463.1242
1463.1242
1464.3517
1464.3517
1465.0391
1465.0391
1484.6029
1486.1359
1486.1359
1487.3664
1487.3664
1488.6574
1488.6574
